"Time [us]","Current(w1) [A]","Current(w2) [A]","Current(w4) [A]","Current(w6) [A]","Current(w2)+Current(w4)+Current(w6) [A]"
0,0,0,0,0,0
0.01,0.0627905195293134,-0.0706416500942743,-0.0359140834345822,-0.00633729230141442,-0.112893025830271
0.02,0.125333233564304,-0.130671076492122,-0.0422157043206368,-0.00532372855052287,-0.178210509363282
0.03,0.187381314585725,-0.182938643585644,-0.035557263144538,0.00242695400781059,-0.216068952722371
0.04,0.248689887164855,-0.22989094422713,-0.0219568116198293,0.0146387580641741,-0.237208997782785
0.05,0.309016994374947,-0.273129120397829,-0.00441167696765123,0.0295365413180706,-0.24800425604741
0.06,0.368124552684678,-0.313568937522116,0.0153334999189883,0.0459944465506969,-0.252240991052431
0.07,0.425779291565073,-0.351699185408087,0.0362133966300847,0.0633127958094847,-0.252172992968518
0.08,0.481753674101715,-0.387756956893576,0.0575648080954792,0.0810451609465569,-0.24914698785154
0.09,0.535826794978997,-0.421832898976968,0.0789649707488284,0.0988945038047437,-0.243973424423396
0.1,0.587785252292473,-0.453933474820894,0.100134415915624,0.11665276820121,-0.23714629070406
0.11,0.63742398974869,-0.484017991770114,0.120879018546845,0.134165569501106,-0.228973403722163
0.12,0.684547105928689,-0.512020782350029,0.141055727783169,0.15131143812902,-0.21965361643784
0.13,0.728968627421411,-0.537864579029247,0.160552450162929,0.167989593949901,-0.209322534916417
0.14,0.770513242775789,-0.561468656833169,0.179276317735645,0.184112777923024,-0.1980795611745
0.15,0.809016994374947,-0.582753841313935,0.197146920133112,0.199603068831182,-0.186003852349641
0.16,0.844327925502015,-0.601645635900304,0.214092450648658,0.214389472374709,-0.173163712876937
0.17,0.876306680043864,-0.618076210083374,0.230047568216268,0.228406568342236,-0.15962207352487
0.18,0.90482705246602,-0.631985694926824,0.24495226422014,0.241593772884197,-0.145439657822487
0.19,0.929776485888251,-0.643323041870335,0.258751306389877,0.253894973064728,-0.13067676241573
0.2,0.951056516295154,-0.652046609996671,0.271394015852099,0.265258369905544,-0.115394224239028
0.21,0.968583161128631,-0.65812456621636,0.282834231327546,0.275636446851326,-0.099653888037488
0.22,0.982287250728689,-0.661535162266117,0.293030369116772,0.284986004324638,-0.083518788824707
0.23,0.992114701314478,-0.66226691559693,0.301945534706289,0.293268228819849,-0.067053152070792
0.24,0.998026728428272,-0.660318717154246,0.309547650821862,0.300448778001078,-0.050322288331306
0.25,1,-0.655699878368711,0.315809586457051,0.306497866794973,-0.0333924251166871
0.26,0.998026728428272,-0.648430123380466,0.320709276832541,0.311390348042879,-0.016330498505046
0.27,0.992114701314478,-0.638539531259618,0.324229827575691,0.315105785561709,0.000796081877781962
0.28,0.982287250728689,-0.626068433558621,0.326359600144859,0.317628511602191,0.017919678188429
0.29,0.968583161128631,-0.611067266123104,0.327092275673654,0.318947671930895,0.034972681481445
0.3,0.951056516295154,-0.593596379312036,0.3264268974637,0.319057253457481,0.051887771609145
0.31,0.929776485888251,-0.573725807327178,0.324367890446326,0.317956095596645,0.068598178715793
0.32,0.904827052466019,-0.551534997807515,0.320925058112592,0.315647884584011,0.0850379448890879
0.33,0.876306680043864,-0.527112503418524,0.316113556778759,0.312141129220202,0.101142182580437
0.34,0.844327925502015,-0.500555637142243,0.309953847134395,0.307449120080929,0.116847330073081
0.35,0.809016994374947,-0.471970091337577,0.302471623450605,0.301589869370401,0.132091401483429
0.36,0.770513242775789,-0.441469525109937,0.293697721578905,0.294586035374138,0.146814231843106
0.37,0.728968627421412,-0.409175116718567,0.283668004795556,0.286464825676387,0.160957713753376
0.38,0.684547105928689,-0.375215091289083,0.272423229741224,0.277257886871267,0.174466025323408
0.39,0.63742398974869,-0.339724213212694,0.260008891509407,0.267001175890492,0.187285854187205
0.4,0.587785252292473,-0.302843260307219,0.246475049594499,0.25573481239214,0.19936660167942
0.41,0.535826794978997,-0.264718466517751,0.23187613610421,0.243502921415532,0.210660591001991
0.42,0.481753674101716,-0.225500949075191,0.216270743560183,0.230353452116985,0.221123246601977
0.43,0.425779291565073,-0.185346114010376,0.199721399746087,0.216337989329155,0.230713275064866
0.44,0.368124552684678,-0.144413041972153,0.182294321597152,0.201511547696299,0.239392827321298
0.45,0.309016994374948,-0.102863862469289,0.164059160046489,0.18593235025097,0.24712764782817
0.46,0.248689887164855,-0.0608631185609192,0.145088726066911,0.169661600668542,0.253887208174534
0.47,0.187381314585725,-0.0185771128888508,0.125458705467417,0.152763238930087,0.259644831508653
0.48,0.125333233564305,0.023826742608743,0.105247362674542,0.135303687443741,0.264377792727026
0.49,0.0627905195293136,0.066180589953038,0.084535235103212,0.117351587869485,0.268067412925735
0.5,5.66553889764798e-16,0.108316782540068,0.0634048149871026,0.0989775296178705,0.270699127145041
0.51,-0.0627905195293129,0.1500685519429,0.0419402263333707,0.0802537722201552,0.272262550496426
0.52,-0.125333233564304,0.191270658893427,0.0202268955908009,0.0612539561371954,0.272751510621423
0.53,-0.187381314585724,0.231760049922877,-0.001648787818307,0.0420528151560476,0.272164077260618
0.54,-0.248689887164855,0.271376497074118,-0.0235998071857695,0.022725877734861,0.270502567623209
0.55,-0.309016994374947,0.30996322982402,-0.045538863249541,0.00334917137546189,0.267773537949941
0.56,-0.368124552684678,0.347367554697969,-0.0673787187219015,-0.0160010791371906,0.263987756838877
0.57,-0.425779291565073,0.383441455790606,-0.0890325370134826,-0.0352487522384966,0.259160166538627
0.58,-0.481753674101715,0.418042180932693,-0.110414232576706,-0.0543181323395747,0.253309816016412
0.59,-0.535826794978996,0.45103280103047,-0.131438802031466,-0.0731342057759566,0.246459793223047
0.6,-0.587785252292473,0.48228275180437,-0.152022661201546,-0.0916229576109604,0.238637132991864
0.61,-0.637423989748689,0.511668350912172,-0.172083977683534,-0.109711666875138,0.2298727063535
0.62,-0.684547105928688,0.539073280104288,-0.191542989207123,-0.127329188718718,0.220201102178447
0.63,-0.728968627421411,0.564389049999788,-0.21032232090395,-0.144406240834964,0.209660488260874
0.64,-0.770513242775789,0.587515423265186,-0.228347288448344,-0.160875671338389,0.198292463478453
0.65,-0.809016994374947,0.608360812642439,-0.245546193399533,-0.176672727717077,0.186141891525829
0.66,-0.844327925502015,0.626842642150599,-0.26185060453187,-0.191735311472413,0.173256726146316
0.67,-0.876306680043864,0.642887668837269,-0.277195629530314,-0.206004222946003,0.159687816360952
0.68,-0.904827052466019,0.656432276406291,-0.291520170026549,-0.21942339418751,0.145488712192232
0.69,-0.929776485888251,0.667422724561048,-0.30476716076162,-0.231940111552393,0.130715452247035
0.7,-0.951056516295154,0.675815359142301,-0.316883797963376,-0.243505223151682,0.115426338027243
0.710000000000001,-0.968583161128633,0.681576785531586,-0.32782174440272,-0.254073332455072,0.0996817086737939
0.720000000000001,-0.98228725072869,0.684683999935338,-0.337537321254141,-0.263602978366497,0.0835437003147
0.730000000000001,-0.992114701314479,0.685124480691956,-0.345991680651433,-0.272056797874789,0.067076002165734
0.740000000000001,-0.998026728428272,0.68289623538463,-0.35315095810353,-0.279401673982857,0.050343603298243
0.750000000000001,-1,0.678007811736319,-0.358986405757864,-0.285608865720794,0.0334125402576609
0.760000000000001,-0.998026728428271,0.670478260381259,-0.363474507022263,-0.290654122788402,0.016349630570594
0.770000000000001,-0.992114701314477,0.660337061442183,-0.366597068010288,-0.294517779929307,-0.000777786497412059
0.780000000000001,-0.982287250728688,0.647624007909439,-0.368341289576325,-0.297184835185957,-0.017902116852843
0.790000000000001,-0.96858316112863,0.632389047494999,-0.36869981774572,-0.298645008939643,-0.034955779190364
0.800000000000001,-0.951056516295152,0.614692086137693,-0.367670772641787,-0.298892784311096,-0.05187147081519
0.810000000000001,-0.929776485888249,0.594602751275115,-0.365257755663308,-0.297927429079713,-0.068582433467906
0.820000000000001,-0.904827052466017,0.572200116542999,-0.361469835281068,-0.295752998227511,-0.0850227169655801
0.830000000000001,-0.876306680043861,0.547572390404039,-0.356321511177987,-0.292378318259555,-0.101127439033503
0.840000000000001,-0.844327925502012,0.520816566305937,-0.349832656960184,-0.287816952053266,-0.116833042707513
0.850000000000001,-0.809016994374944,0.492038041604022,-0.34202844115143,-0.282087145433864,-0.132077544981272
0.860000000000001,-0.770513242775786,0.461350200416346,-0.33293922878476,-0.275211754467541,-0.146800782835955
0.870000000000001,-0.728968627421407,0.428873966261392,-0.322600459889908,-0.267218156787621,-0.160944650416137
0.880000000000001,-0.684547105928684,0.394737324435435,-0.311052511948496,-0.258138142083292,-0.174453329596353
0.890000000000001,-0.637423989748685,0.359074817767169,-0.298340538074841,-0.248007787115727,-0.187273507423399
0.900000000000001,-0.587785252292468,0.322027013156702,-0.284514289898514,-0.236867312433397,-0.199354589175209
0.910000000000001,-0.535826794978992,0.283739950762783,-0.269627920756044,-0.224760925250016,-0.210648895243277
0.920000000000001,-0.48175367410171,0.244364562655605,-0.253739772510161,-0.211736643899545,-0.221111853754101
0.930000000000001,-0.425779291565067,0.204056081450891,-0.236912145339339,-0.197846108464453,-0.230702172352901
0.940000000000001,-0.368124552684673,0.162973423784537,-0.219211049917768,-0.183144376400738,-0.239382002533969
0.950000000000001,-0.309016994374942,0.121278568437175,-0.200705949842711,-0.167689706198996,-0.247117087604532
0.960000000000001,-0.248689887164849,0.0791359081829273,-0.181469483757297,-0.151543328227682,-0.253876903802052
0.970000000000001,-0.187381314585719,0.0367116108100141,-0.16157718389895,-0.134769197986764,-0.2596347710757
0.980000000000001,-0.125333233564299,-0.00582704392225611,-0.141107171104099,-0.117433751920686,-0.264367966947041
0.99,-0.0627905195293133,-0.0483123211126543,-0.120139852828717,-0.0996056377708808,-0.268057811712252
1,-1.1331077795296e-15,-0.0905766930045909,-0.0987576018835708,-0.0813554482176783,-0.27068974310584
1.01,0.0627905195293137,-0.132453503251048,-0.0770444328661243,-0.0627554392715285,-0.272253375388701
1.02,0.125333233564303,-0.173777619064273,-0.0550856699955512,-0.0438792473125849,-0.272742536372409
1.03,0.187381314585725,-0.214386089164034,-0.0329676093204386,-0.0248015975783413,-0.272155296062814
1.04,0.248689887164854,-0.2541187822196,-0.0107771815856931,-0.0055980090446512,-0.270493972849944
1.05,0.309016994374946,-0.292819020594296,0.0113983949855023,0.0136555032086141,-0.26776512240018
1.06,0.368124552684677,-0.33033420072868,0.0334719563655449,0.0328827287855809,-0.263979515577554
1.07,0.425779291565072,-0.366516392290337,0.0553567380766751,0.0520075626369545,-0.259152091576707
1.08,0.481753674101715,-0.401222923570647,0.076966717164034,0.0709543032368363,-0.253301903169777
1.09,0.535826794978996,-0.434316943379578,0.0982169513283261,0.0896479548592471,-0.246452037192005
1.1,0.587785252292473,-0.465667964088731,0.119023915076831,0.108014520847377,-0.238629528164523
1.11,0.637423989748689,-0.495152374136675,0.139305827377491,0.125981298309849,-0.229865248449335
1.12,0.684547105928689,-0.522653925176146,0.158982978917054,0.143477161320297,-0.220193784938795
1.13,0.728968627421411,-0.548064194560765,0.177978041212978,0.160432845102833,-0.209653308244954
1.14,0.770513242775789,-0.571283010292548,0.196216375597061,0.176781217570709,-0.198285417124778
1.15,0.809016994374947,-0.59221884565537,0.213626326264272,0.192457545379844,-0.186134974011254
1.16,0.844327925502014,-0.610789184050191,0.230139503377162,0.207399748269796,-0.173249932403233
1.17,0.876306680043864,-0.626920841174116,0.245691053475587,0.221548643925946,-0.159681143772583
1.18,0.904827052466019,-0.64055025628295,0.26021991461619,0.234848184019254,-0.145482157647506
1.19,0.929776485888251,-0.65162374193349,0.273669058498819,0.247245672074116,-0.130709011360555
1.2,0.951056516295153,-0.660097695956641,0.285985713616402,0.258691974188802,-0.115420008151437
1.21,0.968583161128631,-0.665938773727022,0.297121576661343,0.269141711128884,-0.099675485936795
1.22,0.982287250728688,-0.669124020008762,0.307033000284289,0.278553437854589,-0.083537581869884
1.23,0.992114701314478,-0.669640959523169,0.315681166300457,0.286889807792983,-0.067069985429729
1.24,0.998026728428272,-0.667487645674308,0.323032239963364,0.294117719703116,-0.050337686007828
1.25,1,-0.662672669044975,0.32905750188301,0.30020844859513,-0.033406718566835
1.26,0.998026728428272,-0.655215123289746,0.333733462563484,0.305137758246189,-0.0163439024800729
1.27,0.992114701314478,-0.645144529203171,0.337041954774936,0.308885998026525,0.000783423598289978
1.28,0.982287250728689,-0.632500719394568,0.338970205110465,0.311438179650125,0.017907665366022
1.29,0.968583161128632,-0.617333680154812,0.339510884746657,0.312784036890719,0.034961241482564
1.3,0.951056516295154,-0.599703354647178,0.338662138122388,0.312918065569537,0.0518768490447469
1.31,0.929776485888252,-0.579679406193378,0.336427590463812,0.311839545573236,0.06858772984367
1.32,0.90482705246602,-0.557340943837033,0.332816333280238,0.309552543843553,0.085027933286758
1.33,0.876306680043864,-0.532776209022213,0.327842889171801,0.306065897889487,0.101132578039075
1.34,0.844327925502015,-0.506082229102594,0.321527153538194,0.301393181122223,0.116838105557823
1.35,0.809016994374948,-0.477364432670023,0.313894316849953,0.295552649616655,0.132082533796585
1.36,0.77051324277579,-0.446736235337987,0.30497476471388,0.28856716957594,0.146805698951833
1.37,0.728968627421412,-0.414318589429521,0.294803959233018,0.28046412704569,0.160949496849187
1.38,0.68454710592869,-0.380239510618675,0.283422296636102,0.271275320862512,0.174458106879939
1.39,0.63742398974869,-0.344633568280303,0.270874950730363,0.261036835329691,0.187278217779751
1.4,0.587785252292473,-0.307641358805707,0.257211692580739,0.249788899773311,0.199359233548343
1.41,0.535826794978997,-0.269408947380884,0.242486695441791,0.237575727594822,0.210653475655729
1.42,0.481753674101716,-0.230087292346911,0.226758319322236,0.224445344629531,0.221116371604856
1.43,0.425779291565072,-0.189831651124388,0.210088883015763,0.210449397278054,0.230706629169429
1.44,0.368124552684678,-0.148800965321052,0.192544415456864,0.195642948692895,0.239386398828707
1.45,0.309016994374948,-0.107157235171012,0.174194398237881,0.18008426325265,0.247121426319519
1.46,0.248689887164855,-0.0650648788881751,0.155111489071853,0.163834574827889,0.253881185011567
1.47,0.187381314585726,-0.022690084862738,0.135371235094147,0.146957845849119,0.259638996080528
1.48,0.125333233564306,0.0197998450778761,0.115051776983035,0.129520515852977,0.264372137913888
1.49,0.0627905195293152,0.0622371548113959,0.0942335378106316,0.111591236468129,0.268061929090157
1.5,3.67394039744206e-16,0.104454296845016,0.0729989065941265,0.0932406038906865,0.270693807329829
1.51,-0.0627905195293127,0.146284594535858,0.051431915499485,0.0745408778868895,0.272257387922232
1.52,-0.125333233564303,0.187562897219401,0.0296179044041852,0.0555656977167969,0.272746499340383
1.53,-0.187381314585723,0.228126233389495,0.00764318625008348,0.0363897903563687,0.272159209995947
1.54,-0.248689887164855,0.267814454239187,-0.0144052935571344,0.0170886772018431,0.270497837883896
1.55,-0.309016994374947,0.306470866270512,-0.0364403001280311,-0.00226162490461812,0.267768941237863
1.56,-0.368124552684677,0.343942846386842,-0.0583746552272189,-0.0215849039183262,0.263983287241297
1.56999999999999,-0.425779291565015,0.380082448846412,-0.0801215774235427,-0.0408050527326101,0.259155818690259
1.57999999999999,-0.481753674101659,0.414746985741234,-0.101595030068459,-0.0598463701017432,0.253305585571032
1.58999999999999,-0.535826794978943,0.447799591394215,-0.122710055247093,-0.0786338591975517,0.24645567694957
1.59999999999999,-0.587785252292421,0.47910976086232,-0.143383112899606,-0.0970935233501655,0.238633124612549
1.60999999999999,-0.637423989748641,0.508553869377645,-0.163532408374925,-0.115152658715473,0.229868802287247
1.61999999999999,-0.684547105928643,0.536015654394864,-0.18307821628342,-0.132740139846445,0.220197298264999
1.62999999999999,-0.728968627421368,0.561386679265265,-0.201943195209937,-0.149786702694006,0.209656781361322
1.63999999999999,-0.770513242775748,0.584566757581598,-0.220052692044248,-0.166225215382769,0.198288850154581
1.64999999999999,-0.80901699437491,0.605464350442813,-0.237335036831182,-0.181990944749048,0.186138368862583
1.65999999999999,-0.844327925501981,0.623996929089044,-0.253721826632402,-0.197021813068962,0.17325328938768
1.66999999999999,-0.876306680043833,0.640091295356529,-0.269148194009306,-0.21125863843675,0.159684462910473
1.67999999999999,-0.904827052465992,0.653683878286655,-0.283553063489016,-0.224645373949168,0.145485440848471
1.68999999999999,-0.929776485888228,0.664720977738957,-0.296879393979249,-0.237129325235884,0.130712258523824
1.69999999999999,-0.951056516295134,0.673158980339482,-0.309074401077854,-0.248661359768784,0.115423219492844
1.70999999999999,-0.968583161128615,0.678964530401817,-0.32008976751032,-0.259196099999957,0.09967866289154
1.71999999999999,-0.982287250728677,0.682114662314001,-0.329881833979624,-0.268692103485914,0.083540724848463
1.72999999999999,-0.99211470131447,0.682596890277799,-0.338411769292254,-0.277112026316374,0.067073094669171
1.73999999999999,-0.998026728428268,0.680409257799169,-0.345645725987315,-0.284422769583045,0.050340762228809
1.74999999999999,-1,0.675560345719945,-0.351554972499784,-0.290595610443408,0.0334097627767531
1.75999999999999,-0.998026728428276,0.668069238042937,-0.356116007118805,-0.29560631602857,0.0163469148955621
1.76999999999999,-0.992114701314486,0.657965446761762,-0.359310650485144,-0.299435238561584,-0.000780442284965932
1.77999999999999,-0.982287250728701,0.645288795131766,-0.36112611717367,-0.302067392746054,-0.017904714787958
1.78999999999999,-0.968583161128647,0.630089260835911,-0.361555066400427,-0.303492515461898,-0.034958321026414
1.79999999999999,-0.951056516295174,0.612426778674427,-0.360595630956953,-0.303705105921305,-0.0518739582038311
1.80999999999999,-0.929776485888275,0.592371003867017,-0.358251424440796,-0.302704447569233,-0.068584868143012
1.81999999999999,-0.904827052466046,0.570001037191603,-0.354531527118624,-0.300494610564362,-0.085025100491383
1.82999999999999,-0.876306680043894,0.54540511279752,-0.349450449790983,-0.297084436210279,-0.101129773203742
1.83999999999999,-0.844327925502049,0.518680250329495,-0.343028076736888,-0.292487501945302,-0.116835328352695
1.84999999999999,-0.809016994374985,0.489931871089828,-0.335289587648613,-0.286722067236942,-0.132079783795727
1.85999999999999,-0.770513242775829,0.459273383280872,-0.326265357289658,-0.279811002258781,-0.146802976267567
1.86999999999999,-0.728968627421455,0.426825733394656,-0.315990835840633,-0.271781697618576,-0.160946800064553
1.87999999999999,-0.684547105928735,0.392716929287422,-0.304506409832522,-0.262665955387506,-0.174455435932606
1.88999999999999,-0.637423989748739,0.357081534407284,-0.291857242553348,-0.252499864537896,-0.18727557268396
1.89999999999999,-0.587785252292524,0.320060138369731,-0.278093093612753,-0.241323658305143,-0.199356613548165
1.90999999999999,-0.53582679497905,0.281798801056116,-0.263268126420467,-0.229181555280251,-0.210650880644602
1.91999999999999,-0.481753674101771,0.242448474535234,-0.247440690869364,-0.216121584800475,-0.221113801134605
1.92999999999999,-0.42577929156513,0.202164409798968,-0.230673095273122,-0.202195397062898,-0.230704082537052
